# === DATA DESCRIPTION FILE ======================================================
#
# CAUTION - Investigational device.
# Limited by Federal Law to investigational use.
#
# Dataset name: T2
#
# CLINICAL TRYOUT             Research image export tool     V4.2
#
# === GENERAL INFORMATION ========================================================
#
.    Patient name                       :   Blinded
.    Examination name                   :   Blinded
.    Protocol name                      :   T2
.    Examination date/time              :   0000.00.00 / 00:00:00
.    Series Type                        :   Image   MRSERIES
.    Acquisition nr                     :   0
.    Reconstruction nr                  :   1
.    Scan Duration [sec]                :   236
.    Max. number of cardiac phases      :   1
.    Max. number of echoes              :   12
.    Max. number of slices/locations    :   46
.    Max. number of dynamics            :   1
.    Max. number of mixes               :   1
.    Patient position                   :   Feet First Supine
.    Preparation direction              :   Anterior-Posterior
.    Technique                          :   TSE
.    Scan resolution  (x, y)            :   232  202
.    Scan mode                          :   MS
.    Repetition time [ms]               :   2000.000  
.    FOV (ap,fh,rl) [mm]                :   121.250  140.000  92.000
.    Water Fat shift [pixels]           :   1.249
.    Angulation midslice(ap,fh,rl)[degr]:   -0.003  7.536  -0.052
.    Off Centre midslice(ap,fh,rl) [mm] :   -58.974  42.616  74.449
.    Flow compensation <0=no 1=yes> ?   :   0
.    Presaturation     <0=no 1=yes> ?   :   0
.    Phase encoding velocity [cm/sec]   :   0.000000  0.000000  0.000000
.    MTC               <0=no 1=yes> ?   :   0
.    SPIR              <0=no 1=yes> ?   :   0
.    EPI factor        <0,1=no EPI>     :   1
.    Dynamic scan      <0=no 1=yes> ?   :   0
.    Diffusion         <0=no 1=yes> ?   :   0
.    Diffusion echo time [ms]           :   0.0000
.    Max. number of diffusion values    :   1
.    Max. number of gradient orients    :   1
.    Number of label types   <0=no ASL> :   0
#
# === PIXEL VALUES =============================================================
#  PV = pixel value in REC file, FP = floating point value, DV = displayed value on console
#  RS = rescale slope,           RI = rescale intercept,    SS = scale slope
#  DV = PV * RS + RI             FP = DV / (RS * SS)
#
# === IMAGE INFORMATION DEFINITION =============================================
#  The rest of this file contains ONE line per image, this line contains the following information:
#
#  slice number                             (integer)
#  echo number                              (integer)
#  dynamic scan number                      (integer)
#  cardiac phase number                     (integer)
#  image_type_mr                            (integer)
#  scanning sequence                        (integer)
#  index in REC file (in images)            (integer)
#  image pixel size (in bits)               (integer)
#  scan percentage                          (integer)
#  recon resolution (x y)                   (2*integer)
#  rescale intercept                        (float)
#  rescale slope                            (float)
#  scale slope                              (float)
#  window center                            (integer)
#  window width                             (integer)
#  image angulation (ap,fh,rl in degrees )  (3*float)
#  image offcentre (ap,fh,rl in mm )        (3*float)
#  slice thickness (in mm )                 (float)
#  slice gap (in mm )                       (float)
#  image_display_orientation                (integer)
#  slice orientation ( TRA/SAG/COR )        (integer)
#  fmri_status_indication                   (integer)
#  image_type_ed_es  (end diast/end syst)   (integer)
#  pixel spacing (x,y) (in mm)              (2*float)
#  echo_time                                (float)
#  dyn_scan_begin_time                      (float)
#  trigger_time                             (float)
#  diffusion_b_factor                       (float)
#  number of averages                       (integer)
#  image_flip_angle (in degrees)            (float)
#  cardiac frequency   (bpm)                (integer)
#  minimum RR-interval (in ms)              (integer)
#  maximum RR-interval (in ms)              (integer)
#  TURBO factor  <0=no turbo>               (integer)
#  Inversion delay (in ms)                  (float)
#  diffusion b value number    (imagekey!)  (integer)
#  gradient orientation number (imagekey!)  (integer)
#  contrast type                            (string)
#  diffusion anisotropy type                (string)
#  diffusion (ap, fh, rl)                   (3*float)
#  label type (ASL)            (imagekey!)  (integer)
#
# === IMAGE INFORMATION ==========================================================
#  sl ec  dyn ph ty    idx pix scan% rec size                (re)scale              window        angulation              offcentre        thick   gap   info      spacing     echo     dtime   ttime    diff  avg  flip    freq   RR-int  turbo delay b grad cont anis         diffusion       L.ty

  1   1    1  1 0 1     0  16   100  448  448     0.00000   2.74701  5.83856e-02  1068  1856  -0.00   7.54  -0.05  -53.07   42.61  119.06  2.000  0.000 0 2 0 2  0.313  0.313   6.36    0.00     0.00    0.00   1   90.00     0    0    0    12   0.0  1   1    4    0   0.000    0.000    0.000  1
  2   1    1  1 0 1     1  16   100  448  448     0.00000   2.74701  5.83856e-02   982  1707  -0.00   7.54  -0.05  -53.33   42.61  117.08  2.000  0.000 0 2 0 2  0.313  0.313   6.36    0.00     0.00    0.00   1   90.00     0    0    0    12   0.0  1   1    4    0   0.000    0.000    0.000  1
  3   1    1  1 0 1     2  16   100  448  448     0.00000   2.74701  5.83856e-02   934  1623  -0.00   7.54  -0.05  -53.60   42.61  115.10  2.000  0.000 0 2 0 2  0.313  0.313   6.36    0.00     0.00    0.00   1   90.00     0    0    0    12   0.0  1   1    4    0   0.000    0.000    0.000  1
  4   1    1  1 0 1     3  16   100  448  448     0.00000   2.74701  5.83856e-02   962  1672  -0.00   7.54  -0.05  -53.86   42.61  113.11  2.000  0.000 0 2 0 2  0.313  0.313   6.36    0.00     0.00    0.00   1   90.00     0    0    0    12   0.0  1   1    4    0   0.000    0.000    0.000  1
  5   1    1  1 0 1     4  16   100  448  448     0.00000   2.74701  5.83856e-02   960  1669  -0.00   7.54  -0.05  -54.12   42.61  111.13  2.000  0.000 0 2 0 2  0.313  0.313   6.36    0.00     0.00    0.00   1   90.00     0    0    0    12   0.0  1   1    4    0   0.000    0.000    0.000  1
  6   1    1  1 0 1     5  16   100  448  448     0.00000   2.74701  5.83856e-02   980  1704  -0.00   7.54  -0.05  -54.38   42.61  109.15  2.000  0.000 0 2 0 2  0.313  0.313   6.36    0.00     0.00    0.00   1   90.00     0    0    0    12   0.0  1   1    4    0   0.000    0.000    0.000  1
  7   1    1  1 0 1     6  16   100  448  448     0.00000   2.74701  5.83856e-02  1052  1829  -0.00   7.54  -0.05  -54.65   42.61  107.16  2.000  0.000 0 2 0 2  0.313  0.313   6.36    0.00     0.00    0.00   1   90.00     0    0    0    12   0.0  1   1    4    0   0.000    0.000    0.000  1
  8   1    1  1 0 1     7  16   100  448  448     0.00000   2.74701  5.83856e-02  1067  1855  -0.00   7.54  -0.05  -54.91   42.61  105.18  2.000  0.000 0 2 0 2  0.313  0.313   6.36    0.00     0.00    0.00   1   90.00     0    0    0    12   0.0  1   1    4    0   0.000    0.000    0.000  1
  9   1    1  1 0 1     8  16   100  448  448     0.00000   2.74701  5.83856e-02  1052  1829  -0.00   7.54  -0.05  -55.17   42.61  103.20  2.000  0.000 0 2 0 2  0.313  0.313   6.36    0.00     0.00    0.00   1   90.00     0    0    0    12   0.0  1   1    4    0   0.000    0.000    0.000  1
 10   1    1  1 0 1     9  16   100  448  448     0.00000   2.74701  5.83856e-02  1113  1935  -0.00   7.54  -0.05  -55.43   42.61  101.22  2.000  0.000 0 2 0 2  0.313  0.313   6.36    0.00     0.00    0.00   1   90.00     0    0    0    12   0.0  1   1    4    0   0.000    0.000    0.000  1
 11   1    1  1 0 1    10  16   100  448  448     0.00000   2.74701  5.83856e-02  1188  2064  -0.00   7.54  -0.05  -55.70   42.61   99.23  2.000  0.000 0 2 0 2  0.313  0.313   6.36    0.00     0.00    0.00   1   90.00     0    0    0    12   0.0  1   1    4    0   0.000    0.000    0.000  1
 12   1    1  1 0 1    11  16   100  448  448     0.00000   2.74701  5.83856e-02  1212  2107  -0.00   7.54  -0.05  -55.96   42.61   97.25  2.000  0.000 0 2 0 2  0.313  0.313   6.36    0.00     0.00    0.00   1   90.00     0    0    0    12   0.0  1   1    4    0   0.000    0.000    0.000  1
 13   1    1  1 0 1    12  16   100  448  448     0.00000   2.74701  5.83856e-02  1246  2167  -0.00   7.54  -0.05  -56.22   42.62   95.27  2.000  0.000 0 2 0 2  0.313  0.313   6.36    0.00     0.00    0.00   1   90.00     0    0    0    12   0.0  1   1    4    0   0.000    0.000    0.000  1
 14   1    1  1 0 1    13  16   100  448  448     0.00000   2.74701  5.83856e-02  1233  2143  -0.00   7.54  -0.05  -56.48   42.62   93.29  2.000  0.000 0 2 0 2  0.313  0.313   6.36    0.00     0.00    0.00   1   90.00     0    0    0    12   0.0  1   1    4    0   0.000    0.000    0.000  1
 15   1    1  1 0 1    14  16   100  448  448     0.00000   2.74701  5.83856e-02  1214  2111  -0.00   7.54  -0.05  -56.74   42.62   91.30  2.000  0.000 0 2 0 2  0.313  0.313   6.36    0.00     0.00    0.00   1   90.00     0    0    0    12   0.0  1   1    4    0   0.000    0.000    0.000  1
 16   1    1  1 0 1    15  16   100  448  448     0.00000   2.74701  5.83856e-02  1147  1994  -0.00   7.54  -0.05  -57.01   42.62   89.32  2.000  0.000 0 2 0 2  0.313  0.313   6.36    0.00     0.00    0.00   1   90.00     0    0    0    12   0.0  1   1    4    0   0.000    0.000    0.000  1
 17   1    1  1 0 1    16  16   100  448  448     0.00000   2.74701  5.83856e-02  1125  1956  -0.00   7.54  -0.05  -57.27   42.62   87.34  2.000  0.000 0 2 0 2  0.313  0.313   6.36    0.00     0.00    0.00   1   90.00     0    0    0    12   0.0  1   1    4    0   0.000    0.000    0.000  1
 18   1    1  1 0 1    17  16   100  448  448     0.00000   2.74701  5.83856e-02  1092  1899  -0.00   7.54  -0.05  -57.53   42.62   85.35  2.000  0.000 0 2 0 2  0.313  0.313   6.36    0.00     0.00    0.00   1   90.00     0    0    0    12   0.0  1   1    4    0   0.000    0.000    0.000  1
 19   1    1  1 0 1    18  16   100  448  448     0.00000   2.74701  5.83856e-02  1057  1838  -0.00   7.54  -0.05  -57.79   42.62   83.37  2.000  0.000 0 2 0 2  0.313  0.313   6.36    0.00     0.00    0.00   1   90.00     0    0    0    12   0.0  1   1    4    0   0.000    0.000    0.000  1
 20   1    1  1 0 1    19  16   100  448  448     0.00000   2.74701  5.83856e-02  1047  1820  -0.00   7.54  -0.05  -58.06   42.62   81.39  2.000  0.000 0 2 0 2  0.313  0.313   6.36    0.00     0.00    0.00   1   90.00     0    0    0    12   0.0  1   1    4    0   0.000    0.000    0.000  1
 21   1    1  1 0 1    20  16   100  448  448     0.00000   2.74701  5.83856e-02  1058  1839  -0.00   7.54  -0.05  -58.32   42.62   79.41  2.000  0.000 0 2 0 2  0.313  0.313   6.36    0.00     0.00    0.00   1   90.00     0    0    0    12   0.0  1   1    4    0   0.000    0.000    0.000  1
 22   1    1  1 0 1    21  16   100  448  448     0.00000   2.74701  5.83856e-02  1045  1816  -0.00   7.54  -0.05  -58.58   42.62   77.42  2.000  0.000 0 2 0 2  0.313  0.313   6.36    0.00     0.00    0.00   1   90.00     0    0    0    12   0.0  1   1    4    0   0.000    0.000    0.000  1
 23   1    1  1 0 1    22  16   100  448  448     0.00000   2.74701  5.83856e-02  1052  1828  -0.00   7.54  -0.05  -58.84   42.62   75.44  2.000  0.000 0 2 0 2  0.313  0.313   6.36    0.00     0.00    0.00   1   90.00     0    0    0    12   0.0  1   1    4    0   0.000    0.000    0.000  1
 24   1    1  1 0 1    23  16   100  448  448     0.00000   2.74701  5.83856e-02  1070  1860  -0.00   7.54  -0.05  -59.11   42.62   73.46  2.000  0.000 0 2 0 2  0.313  0.313   6.36    0.00     0.00    0.00   1   90.00     0    0    0    12   0.0  1   1    4    0   0.000    0.000    0.000  1
 25   1    1  1 0 1    24  16   100  448  448     0.00000   2.74701  5.83856e-02  1081  1879  -0.00   7.54  -0.05  -59.37   42.62   71.48  2.000  0.000 0 2 0 2  0.313  0.313   6.36    0.00     0.00    0.00   1   90.00     0    0    0    12   0.0  1   1    4    0   0.000    0.000    0.000  1
 26   1    1  1 0 1    25  16   100  448  448     0.00000   2.74701  5.83856e-02  1049  1823  -0.00   7.54  -0.05  -59.63   42.62   69.49  2.000  0.000 0 2 0 2  0.313  0.313   6.36    0.00     0.00    0.00   1   90.00     0    0    0    12   0.0  1   1    4    0   0.000    0.000    0.000  1
 27   1    1  1 0 1    26  16   100  448  448     0.00000   2.74701  5.83856e-02  1048  1821  -0.00   7.54  -0.05  -59.89   42.62   67.51  2.000  0.000 0 2 0 2  0.313  0.313   6.36    0.00     0.00    0.00   1   90.00     0    0    0    12   0.0  1   1    4    0   0.000    0.000    0.000  1
 28   1    1  1 0 1    27  16   100  448  448     0.00000   2.74701  5.83856e-02  1028  1786  -0.00   7.54  -0.05  -60.15   42.62   65.53  2.000  0.000 0 2 0 2  0.313  0.313   6.36    0.00     0.00    0.00   1   90.00     0    0    0    12   0.0  1   1    4    0   0.000    0.000    0.000  1
 29   1    1  1 0 1    28  16   100  448  448     0.00000   2.74701  5.83856e-02  1039  1806  -0.00   7.54  -0.05  -60.42   42.62   63.54  2.000  0.000 0 2 0 2  0.313  0.313   6.36    0.00     0.00    0.00   1   90.00     0    0    0    12   0.0  1   1    4    0   0.000    0.000    0.000  1
 30   1    1  1 0 1    29  16   100  448  448     0.00000   2.74701  5.83856e-02  1014  1762  -0.00   7.54  -0.05  -60.68   42.62   61.56  2.000  0.000 0 2 0 2  0.313  0.313   6.36    0.00     0.00    0.00   1   90.00     0    0    0    12   0.0  1   1    4    0   0.000    0.000    0.000  1
 31   1    1  1 0 1    30  16   100  448  448     0.00000   2.74701  5.83856e-02  1050  1825  -0.00   7.54  -0.05  -60.94   42.62   59.58  2.000  0.000 0 2 0 2  0.313  0.313   6.36    0.00     0.00    0.00   1   90.00     0    0    0    12   0.0  1   1    4    0   0.000    0.000    0.000  1
 32   1    1  1 0 1    31  16   100  448  448     0.00000   2.74701  5.83856e-02  1079  1876  -0.00   7.54  -0.05  -61.20   42.62   57.60  2.000  0.000 0 2 0 2  0.313  0.313   6.36    0.00     0.00    0.00   1   90.00     0    0    0    12   0.0  1   1    4    0   0.000    0.000    0.000  1
 33   1    1  1 0 1    32  16   100  448  448     0.00000   2.74701  5.83856e-02  1120  1947  -0.00   7.54  -0.05  -61.47   42.62   55.61  2.000  0.000 0 2 0 2  0.313  0.313   6.36    0.00     0.00    0.00   1   90.00     0    0    0    12   0.0  1   1    4    0   0.000    0.000    0.000  1
 34   1    1  1 0 1    33  16   100  448  448     0.00000   2.74701  5.83856e-02  1159  2015  -0.00   7.54  -0.05  -61.73   42.62   53.63  2.000  0.000 0 2 0 2  0.313  0.313   6.36    0.00     0.00    0.00   1   90.00     0    0    0    12   0.0  1   1    4    0   0.000    0.000    0.000  1
 35   1    1  1 0 1    34  16   100  448  448     0.00000   2.74701  5.83856e-02  1167  2029  -0.00   7.54  -0.05  -61.99   42.62   51.65  2.000  0.000 0 2 0 2  0.313  0.313   6.36    0.00     0.00    0.00   1   90.00     0    0    0    12   0.0  1   1    4    0   0.000    0.000    0.000  1
 36   1    1  1 0 1    35  16   100  448  448     0.00000   2.74701  5.83856e-02  1173  2039  -0.00   7.54  -0.05  -62.25   42.62   49.67  2.000  0.000 0 2 0 2  0.313  0.313   6.36    0.00     0.00    0.00   1   90.00     0    0    0    12   0.0  1   1    4    0   0.000    0.000    0.000  1
 37   1    1  1 0 1    36  16   100  448  448     0.00000   2.74701  5.83856e-02  1173  2039  -0.00   7.54  -0.05  -62.52   42.62   47.68  2.000  0.000 0 2 0 2  0.313  0.313   6.36    0.00     0.00    0.00   1   90.00     0    0    0    12   0.0  1   1    4    0   0.000    0.000    0.000  1
 38   1    1  1 0 1    37  16   100  448  448     0.00000   2.74701  5.83856e-02  1174  2041  -0.00   7.54  -0.05  -62.78   42.62   45.70  2.000  0.000 0 2 0 2  0.313  0.313   6.36    0.00     0.00    0.00   1   90.00     0    0    0    12   0.0  1   1    4    0   0.000    0.000    0.000  1
 39   1    1  1 0 1    38  16   100  448  448     0.00000   2.74701  5.83856e-02  1193  2074  -0.00   7.54  -0.05  -63.04   42.62   43.72  2.000  0.000 0 2 0 2  0.313  0.313   6.36    0.00     0.00    0.00   1   90.00     0    0    0    12   0.0  1   1    4    0   0.000    0.000    0.000  1
 40   1    1  1 0 1    39  16   100  448  448     0.00000   2.74701  5.83856e-02  1204  2093  -0.00   7.54  -0.05  -63.30   42.62   41.73  2.000  0.000 0 2 0 2  0.313  0.313   6.36    0.00     0.00    0.00   1   90.00     0    0    0    12   0.0  1   1    4    0   0.000    0.000    0.000  1
 41   1    1  1 0 1    40  16   100  448  448     0.00000   2.74701  5.83856e-02  1138  1978  -0.00   7.54  -0.05  -63.56   42.62   39.75  2.000  0.000 0 2 0 2  0.313  0.313   6.36    0.00     0.00    0.00   1   90.00     0    0    0    12   0.0  1   1    4    0   0.000    0.000    0.000  1
 42   1    1  1 0 1    41  16   100  448  448     0.00000   2.74701  5.83856e-02  1079  1875  -0.00   7.54  -0.05  -63.83   42.62   37.77  2.000  0.000 0 2 0 2  0.313  0.313   6.36    0.00     0.00    0.00   1   90.00     0    0    0    12   0.0  1   1    4    0   0.000    0.000    0.000  1
 43   1    1  1 0 1    42  16   100  448  448     0.00000   2.74701  5.83856e-02  1222  2125  -0.00   7.54  -0.05  -64.09   42.62   35.79  2.000  0.000 0 2 0 2  0.313  0.313   6.36    0.00     0.00    0.00   1   90.00     0    0    0    12   0.0  1   1    4    0   0.000    0.000    0.000  1
 44   1    1  1 0 1    43  16   100  448  448     0.00000   2.74701  5.83856e-02  1247  2168  -0.00   7.54  -0.05  -64.35   42.62   33.80  2.000  0.000 0 2 0 2  0.313  0.313   6.36    0.00     0.00    0.00   1   90.00     0    0    0    12   0.0  1   1    4    0   0.000    0.000    0.000  1
 45   1    1  1 0 1    44  16   100  448  448     0.00000   2.74701  5.83856e-02  1279  2223  -0.00   7.54  -0.05  -64.61   42.62   31.82  2.000  0.000 0 2 0 2  0.313  0.313   6.36    0.00     0.00    0.00   1   90.00     0    0    0    12   0.0  1   1    4    0   0.000    0.000    0.000  1
 46   1    1  1 0 1    45  16   100  448  448     0.00000   2.74701  5.83856e-02  1298  2257  -0.00   7.54  -0.05  -64.88   42.62   29.84  2.000  0.000 0 2 0 2  0.313  0.313   6.36    0.00     0.00    0.00   1   90.00     0    0    0    12   0.0  1   1    4    0   0.000    0.000    0.000  1
  1   2    1  1 0 1    46  16   100  448  448     0.00000   2.74701  5.83856e-02  1163  2022  -0.00   7.54  -0.05  -53.07   42.61  119.06  2.000  0.000 0 2 0 2  0.313  0.313  12.72    0.00     0.00    0.00   1   90.00     0    0    0    12   0.0  1   1    4    0   0.000    0.000    0.000  1
  2   2    1  1 0 1    47  16   100  448  448     0.00000   2.74701  5.83856e-02  1073  1866  -0.00   7.54  -0.05  -53.33   42.61  117.08  2.000  0.000 0 2 0 2  0.313  0.313  12.72    0.00     0.00    0.00   1   90.00     0    0    0    12   0.0  1   1    4    0   0.000    0.000    0.000  1
  3   2    1  1 0 1    48  16   100  448  448     0.00000   2.74701  5.83856e-02  1010  1755  -0.00   7.54  -0.05  -53.60   42.61  115.10  2.000  0.000 0 2 0 2  0.313  0.313  12.72    0.00     0.00    0.00   1   90.00     0    0    0    12   0.0  1   1    4    0   0.000    0.000    0.000  1
  4   2    1  1 0 1    49  16   100  448  448     0.00000   2.74701  5.83856e-02  1034  1797  -0.00   7.54  -0.05  -53.86   42.61  113.11  2.000  0.000 0 2 0 2  0.313  0.313  12.72    0.00     0.00    0.00   1   90.00     0    0    0    12   0.0  1   1    4    0   0.000    0.000    0.000  1
  5   2    1  1 0 1    50  16   100  448  448     0.00000   2.74701  5.83856e-02  1040  1808  -0.00   7.54  -0.05  -54.12   42.61  111.13  2.000  0.000 0 2 0 2  0.313  0.313  12.72    0.00     0.00    0.00   1   90.00     0    0    0    12   0.0  1   1    4    0   0.000    0.000    0.000  1
  6   2    1  1 0 1    51  16   100  448  448     0.00000   2.74701  5.83856e-02  1071  1862  -0.00   7.54  -0.05  -54.38   42.61  109.15  2.000  0.000 0 2 0 2  0.313  0.313  12.72    0.00     0.00    0.00   1   90.00     0    0    0    12   0.0  1   1    4    0   0.000    0.000    0.000  1
  7   2    1  1 0 1    52  16   100  448  448     0.00000   2.74701  5.83856e-02  1135  1974  -0.00   7.54  -0.05  -54.65   42.61  107.16  2.000  0.000 0 2 0 2  0.313  0.313  12.72    0.00     0.00    0.00   1   90.00     0    0    0    12   0.0  1   1    4    0   0.000    0.000    0.000  1
  8   2    1  1 0 1    53  16   100  448  448     0.00000   2.74701  5.83856e-02  1167  2028  -0.00   7.54  -0.05  -54.91   42.61  105.18  2.000  0.000 0 2 0 2  0.313  0.313  12.72    0.00     0.00    0.00   1   90.00     0    0    0    12   0.0  1   1    4    0   0.000    0.000    0.000  1
  9   2    1  1 0 1    54  16   100  448  448     0.00000   2.74701  5.83856e-02  1159  2014  -0.00   7.54  -0.05  -55.17   42.61  103.20  2.000  0.000 0 2 0 2  0.313  0.313  12.72    0.00     0.00    0.00   1   90.00     0    0    0    12   0.0  1   1    4    0   0.000    0.000    0.000  1
 10   2    1  1 0 1    55  16   100  448  448     0.00000   2.74701  5.83856e-02  1219  2118  -0.00   7.54  -0.05  -55.43   42.61  101.22  2.000  0.000 0 2 0 2  0.313  0.313  12.72    0.00     0.00    0.00   1   90.00     0    0    0    12   0.0  1   1    4    0   0.000    0.000    0.000  1
 11   2    1  1 0 1    56  16   100  448  448     0.00000   2.74701  5.83856e-02  1301  2261  -0.00   7.54  -0.05  -55.70   42.61   99.23  2.000  0.000 0 2 0 2  0.313  0.313  12.72    0.00     0.00    0.00   1   90.00     0    0    0    12   0.0  1   1    4    0   0.000    0.000    0.000  1
 12   2    1  1 0 1    57  16   100  448  448     0.00000   2.74701  5.83856e-02  1337  2324  -0.00   7.54  -0.05  -55.96   42.61   97.25  2.000  0.000 0 2 0 2  0.313  0.313  12.72    0.00     0.00    0.00   1   90.00     0    0    0    12   0.0  1   1    4    0   0.000    0.000    0.000  1
 13   2    1  1 0 1    58  16   100  448  448     0.00000   2.74701  5.83856e-02  1379  2397  -0.00   7.54  -0.05  -56.22   42.62   95.27  2.000  0.000 0 2 0 2  0.313  0.313  12.72    0.00     0.00    0.00   1   90.00     0    0    0    12   0.0  1   1    4    0   0.000    0.000    0.000  1
 14   2    1  1 0 1    59  16   100  448  448     0.00000   2.74701  5.83856e-02  1375  2391  -0.00   7.54  -0.05  -56.48   42.62   93.29  2.000  0.000 0 2 0 2  0.313  0.313  12.72    0.00     0.00    0.00   1   90.00     0    0    0    12   0.0  1   1    4    0   0.000    0.000    0.000  1
 15   2    1  1 0 1    60  16   100  448  448     0.00000   2.74701  5.83856e-02  1380  2399  -0.00   7.54  -0.05  -56.74   42.62   91.30  2.000  0.000 0 2 0 2  0.313  0.313  12.72    0.00     0.00    0.00   1   90.00     0    0    0    12   0.0  1   1    4    0   0.000    0.000    0.000  1
 16   2    1  1 0 1    61  16   100  448  448     0.00000   2.74701  5.83856e-02  1305  2268  -0.00   7.54  -0.05  -57.01   42.62   89.32  2.000  0.000 0 2 0 2  0.313  0.313  12.72    0.00     0.00    0.00   1   90.00     0    0    0    12   0.0  1   1    4    0   0.000    0.000    0.000  1
 17   2    1  1 0 1    62  16   100  448  448     0.00000   2.74701  5.83856e-02  1276  2218  -0.00   7.54  -0.05  -57.27   42.62   87.34  2.000  0.000 0 2 0 2  0.313  0.313  12.72    0.00     0.00    0.00   1   90.00     0    0    0    12   0.0  1   1    4    0   0.000    0.000    0.000  1
 18   2    1  1 0 1    63  16   100  448  448     0.00000   2.74701  5.83856e-02  1242  2158  -0.00   7.54  -0.05  -57.53   42.62   85.35  2.000  0.000 0 2 0 2  0.313  0.313  12.72    0.00     0.00    0.00   1   90.00     0    0    0    12   0.0  1   1    4    0   0.000    0.000    0.000  1
 19   2    1  1 0 1    64  16   100  448  448     0.00000   2.74701  5.83856e-02  1191  2071  -0.00   7.54  -0.05  -57.79   42.62   83.37  2.000  0.000 0 2 0 2  0.313  0.313  12.72    0.00     0.00    0.00   1   90.00     0    0    0    12   0.0  1   1    4    0   0.000    0.000    0.000  1
 20   2    1  1 0 1    65  16   100  448  448     0.00000   2.74701  5.83856e-02  1169  2033  -0.00   7.54  -0.05  -58.06   42.62   81.39  2.000  0.000 0 2 0 2  0.313  0.313  12.72    0.00     0.00    0.00   1   90.00     0    0    0    12   0.0  1   1    4    0   0.000    0.000    0.000  1
 21   2    1  1 0 1    66  16   100  448  448     0.00000   2.74701  5.83856e-02  1183  2056  -0.00   7.54  -0.05  -58.32   42.62   79.41  2.000  0.000 0 2 0 2  0.313  0.313  12.72    0.00     0.00    0.00   1   90.00     0    0    0    12   0.0  1   1    4    0   0.000    0.000    0.000  1
 22   2    1  1 0 1    67  16   100  448  448     0.00000   2.74701  5.83856e-02  1169  2032  -0.00   7.54  -0.05  -58.58   42.62   77.42  2.000  0.000 0 2 0 2  0.313  0.313  12.72    0.00     0.00    0.00   1   90.00     0    0    0    12   0.0  1   1    4    0   0.000    0.000    0.000  1
 23   2    1  1 0 1    68  16   100  448  448     0.00000   2.74701  5.83856e-02  1175  2042  -0.00   7.54  -0.05  -58.84   42.62   75.44  2.000  0.000 0 2 0 2  0.313  0.313  12.72    0.00     0.00    0.00   1   90.00     0    0    0    12   0.0  1   1    4    0   0.000    0.000    0.000  1
 24   2    1  1 0 1    69  16   100  448  448     0.00000   2.74701  5.83856e-02  1171  2035  -0.00   7.54  -0.05  -59.11   42.62   73.46  2.000  0.000 0 2 0 2  0.313  0.313  12.72    0.00     0.00    0.00   1   90.00     0    0    0    12   0.0  1   1    4    0   0.000    0.000    0.000  1
 25   2    1  1 0 1    70  16   100  448  448     0.00000   2.74701  5.83856e-02  1185  2060  -0.00   7.54  -0.05  -59.37   42.62   71.48  2.000  0.000 0 2 0 2  0.313  0.313  12.72    0.00     0.00    0.00   1   90.00     0    0    0    12   0.0  1   1    4    0   0.000    0.000    0.000  1
 26   2    1  1 0 1    71  16   100  448  448     0.00000   2.74701  5.83856e-02  1170  2033  -0.00   7.54  -0.05  -59.63   42.62   69.49  2.000  0.000 0 2 0 2  0.313  0.313  12.72    0.00     0.00    0.00   1   90.00     0    0    0    12   0.0  1   1    4    0   0.000    0.000    0.000  1
 27   2    1  1 0 1    72  16   100  448  448     0.00000   2.74701  5.83856e-02  1177  2046  -0.00   7.54  -0.05  -59.89   42.62   67.51  2.000  0.000 0 2 0 2  0.313  0.313  12.72    0.00     0.00    0.00   1   90.00     0    0    0    12   0.0  1   1    4    0   0.000    0.000    0.000  1
 28   2    1  1 0 1    73  16   100  448  448     0.00000   2.74701  5.83856e-02  1147  1993  -0.00   7.54  -0.05  -60.15   42.62   65.53  2.000  0.000 0 2 0 2  0.313  0.313  12.72    0.00     0.00    0.00   1   90.00     0    0    0    12   0.0  1   1    4    0   0.000    0.000    0.000  1
 29   2    1  1 0 1    74  16   100  448  448     0.00000   2.74701  5.83856e-02  1152  2003  -0.00   7.54  -0.05  -60.42   42.62   63.54  2.000  0.000 0 2 0 2  0.313  0.313  12.72    0.00     0.00    0.00   1   90.00     0    0    0    12   0.0  1   1    4    0   0.000    0.000    0.000  1
 30   2    1  1 0 1    75  16   100  448  448     0.00000   2.74701  5.83856e-02  1133  1970  -0.00   7.54  -0.05  -60.68   42.62   61.56  2.000  0.000 0 2 0 2  0.313  0.313  12.72    0.00     0.00    0.00   1   90.00     0    0    0    12   0.0  1   1    4    0   0.000    0.000    0.000  1
 31   2    1  1 0 1    76  16   100  448  448     0.00000   2.74701  5.83856e-02  1179  2050  -0.00   7.54  -0.05  -60.94   42.62   59.58  2.000  0.000 0 2 0 2  0.313  0.313  12.72    0.00     0.00    0.00   1   90.00     0    0    0    12   0.0  1   1    4    0   0.000    0.000    0.000  1
 32   2    1  1 0 1    77  16   100  448  448     0.00000   2.74701  5.83856e-02  1206  2096  -0.00   7.54  -0.05  -61.20   42.62   57.60  2.000  0.000 0 2 0 2  0.313  0.313  12.72    0.00     0.00    0.00   1   90.00     0    0    0    12   0.0  1   1    4    0   0.000    0.000    0.000  1
 33   2    1  1 0 1    78  16   100  448  448     0.00000   2.74701  5.83856e-02  1245  2164  -0.00   7.54  -0.05  -61.47   42.62   55.61  2.000  0.000 0 2 0 2  0.313  0.313  12.72    0.00     0.00    0.00   1   90.00     0    0    0    12   0.0  1   1    4    0   0.000    0.000    0.000  1
 34   2    1  1 0 1    79  16   100  448  448     0.00000   2.74701  5.83856e-02  1278  2222  -0.00   7.54  -0.05  -61.73   42.62   53.63  2.000  0.000 0 2 0 2  0.313  0.313  12.72    0.00     0.00    0.00   1   90.00     0    0    0    12   0.0  1   1    4    0   0.000    0.000    0.000  1
 35   2    1  1 0 1    80  16   100  448  448     0.00000   2.74701  5.83856e-02  1290  2242  -0.00   7.54  -0.05  -61.99   42.62   51.65  2.000  0.000 0 2 0 2  0.313  0.313  12.72    0.00     0.00    0.00   1   90.00     0    0    0    12   0.0  1   1    4    0   0.000    0.000    0.000  1
 36   2    1  1 0 1    81  16   100  448  448     0.00000   2.74701  5.83856e-02  1294  2249  -0.00   7.54  -0.05  -62.25   42.62   49.67  2.000  0.000 0 2 0 2  0.313  0.313  12.72    0.00     0.00    0.00   1   90.00     0    0    0    12   0.0  1   1    4    0   0.000    0.000    0.000  1
 37   2    1  1 0 1    82  16   100  448  448     0.00000   2.74701  5.83856e-02  1292  2246  -0.00   7.54  -0.05  -62.52   42.62   47.68  2.000  0.000 0 2 0 2  0.313  0.313  12.72    0.00     0.00    0.00   1   90.00     0    0    0    12   0.0  1   1    4    0   0.000    0.000    0.000  1
 38   2    1  1 0 1    83  16   100  448  448     0.00000   2.74701  5.83856e-02  1307  2273  -0.00   7.54  -0.05  -62.78   42.62   45.70  2.000  0.000 0 2 0 2  0.313  0.313  12.72    0.00     0.00    0.00   1   90.00     0    0    0    12   0.0  1   1    4    0   0.000    0.000    0.000  1
